#t	Mdot	Mdisk	Rhot	Cirrout	H2R	Teffout	Tirrout	Qiir2Qvisout	Lx	mU	mB	mV	mR	mI	mJ	 Fnu0										 Fnu1									 Fnu2									
#days	g/s	g	Rsun	float	float	K	K	float	erg/s	mag	mag	mag	mag	mag	mag	erg/s/cm^2/Hz	erg/s/cm^2/Hz	erg/s/cm^2/Hz
# Cirr=0
# F0=2e+38
# Mdotout=0
# Mopt=0.5
# Mx=5
# Nx=1000
# Thot=0
# alpha=0.25
# boundcond=Teff
# colourfactor=1.7
# dir=.
# distance=10
# emax=12
# emin=1
# gaussmu=1
# gausssigma=0.25
# gridscale=log
# inclination=0
# initialcond=powerF
# irrfactortype=const
# kerr=0
# lambda=8000  # 0
# lambda=5000  # 1
# lambda=3000  # 2
# opacity=Kramers
# period=0.25
# powerorder=6
# prefix=lambdas
# tau=0.25
# time=50
# --rout hadn't been specified, tidal radius 1.53444 Rsun was used
0	0.000912194	2.91708e+25	1.53444	0	0.0996553	12855.7	0	0	1.92116e-97	14.9981	15.9213	15.9654	15.9506	16.2487	16.1178	1.06938e-26	1.66031e-26	1.7237e-26
0.25	1.12139e+14	2.92042e+25	1.53444	0	0.094847	11838.6	0	0	2.17866e+29	14.9302	15.8669	15.9213	15.9143	16.2186	16.091	1.10297e-26	1.73539e-26	1.86489e-26
0.5	1.22005e+15	2.92186e+25	1.53444	0	0.0926747	11390.2	0	0	4.9742e+32	14.87	15.8198	15.8839	15.8841	16.1939	16.0692	1.13152e-26	1.80218e-26	2.00382e-26
0.75	5.89487e+15	2.92278e+25	1.53444	0	0.0911901	11087.7	0	0	1.65326e+34	14.8158	15.7782	15.8515	15.8582	16.1729	16.0508	1.15651e-26	1.86275e-26	2.13999e-26
1	1.92046e+16	2.92343e+25	1.53444	0	0.0900417	10856	0	0	1.36899e+35	14.7672	15.7415	15.8231	15.8359	16.1549	16.0351	1.17844e-26	1.91758e-26	2.27142e-26
1.25	4.90735e+16	2.92388e+25	1.53444	0	0.0890985	10667.1	0	0	5.91271e+35	14.7241	15.7091	15.7984	15.8166	16.1395	16.0217	1.19761e-26	1.9668e-26	2.39601e-26
1.5	1.05694e+17	2.92411e+25	1.53444	0	0.0882955	10507.4	0	0	1.76136e+36	14.6862	15.6809	15.7771	15.8001	16.1265	16.0104	1.21421e-26	2.01052e-26	2.5121e-26
1.75	1.99737e+17	2.92406e+25	1.53444	0	0.0875952	10368.8	0	0	4.1209e+36	14.6531	15.6565	15.7588	15.7861	16.1155	16.0009	1.22845e-26	2.04895e-26	2.61857e-26
2	3.39834e+17	2.92366e+25	1.53444	0	0.0869739	10246.5	0	0	8.12275e+36	14.6245	15.6356	15.7432	15.7743	16.1063	15.993	1.24053e-26	2.08235e-26	2.71489e-26
2.25	5.3038e+17	2.92281e+25	1.53444	0	0.0864153	10137.1	0	0	1.40806e+37	14.5998	15.6177	15.7301	15.7644	16.0987	15.9865	1.25065e-26	2.11109e-26	2.80103e-26
2.5	7.70564e+17	2.9214e+25	1.53444	0	0.085908	10038.1	0	0	2.20957e+37	14.5787	15.6025	15.7191	15.7563	16.0925	15.9813	1.25901e-26	2.13558e-26	2.87736e-26
2.75	1.05481e+18	2.91936e+25	1.53444	0	0.0854435	9947.81	0	0	3.20492e+37	14.5608	15.5898	15.71	15.7496	16.0876	15.9772	1.26582e-26	2.15622e-26	2.94445e-26
3	1.37421e+18	2.9166e+25	1.53444	0	0.0850151	9864.84	0	0	4.36486e+37	14.5456	15.5791	15.7025	15.7443	16.0837	15.974	1.27127e-26	2.17345e-26	3.00303e-26
3.25	1.7182e+18	2.91309e+25	1.53444	0	0.084618	9788.14	0	0	5.64972e+37	14.5328	15.5703	15.6965	15.7401	16.0807	15.9716	1.27552e-26	2.18764e-26	3.05385e-26
3.5	2.07611e+18	2.90878e+25	1.53444	0	0.0842479	9716.9	0	0	7.01633e+37	14.5221	15.5631	15.6917	15.7369	16.0786	15.9699	1.27873e-26	2.19917e-26	3.09769e-26
3.75	2.43819e+18	2.90368e+25	1.53444	0	0.0839016	9650.42	0	0	8.42325e+37	14.5132	15.5572	15.6879	15.7345	16.0771	15.9688	1.28104e-26	2.20835e-26	3.13526e-26
4	2.79618e+18	2.89779e+25	1.53444	0	0.0835763	9588.15	0	0	9.83405e+37	14.5058	15.5526	15.6851	15.7329	16.0762	15.9682	1.28255e-26	2.21548e-26	3.16726e-26
4.25	3.14357e+18	2.89114e+25	1.53444	0	0.0832699	9529.64	0	0	1.12188e+38	14.4998	15.5489	15.683	15.7319	16.0758	15.9681	1.28339e-26	2.22081e-26	3.19428e-26
4.5	3.47552e+18	2.88377e+25	1.53444	0	0.0829804	9474.48	0	0	1.25546e+38	14.495	15.5462	15.6817	15.7314	16.0759	15.9683	1.28363e-26	2.22457e-26	3.21689e-26
4.75	3.78867e+18	2.87571e+25	1.53444	0	0.0827062	9422.36	0	0	1.38245e+38	14.4913	15.5443	15.681	15.7315	16.0763	15.9689	1.28336e-26	2.22695e-26	3.23557e-26
5	4.08094e+18	2.86701e+25	1.53444	0	0.0824459	9372.98	0	0	1.50174e+38	14.4884	15.543	15.6808	15.7319	16.0771	15.9698	1.28263e-26	2.22811e-26	3.25077e-26
5.25	4.35124e+18	2.85772e+25	1.53444	0	0.0821982	9326.09	0	0	1.61267e+38	14.4863	15.5424	15.6811	15.7327	16.0782	15.9709	1.28152e-26	2.22821e-26	3.26287e-26
5.5	4.59924e+18	2.84788e+25	1.53444	0	0.081962	9281.48	0	0	1.71491e+38	14.485	15.5423	15.6818	15.7338	16.0795	15.9723	1.28007e-26	2.22738e-26	3.27221e-26
5.75	4.82519e+18	2.83756e+25	1.53444	0	0.0817365	9238.96	0	0	1.80842e+38	14.4842	15.5426	15.6828	15.7353	16.081	15.9738	1.27831e-26	2.22573e-26	3.2791e-26
6	5.02976e+18	2.82679e+25	1.53444	0	0.0815208	9198.36	0	0	1.89336e+38	14.4841	15.5434	15.6842	15.7369	16.0828	15.9755	1.2763e-26	2.22334e-26	3.2838e-26
6.25	5.21386e+18	2.81561e+25	1.53444	0	0.0813141	9159.52	0	0	1.97002e+38	14.4844	15.5445	15.6858	15.7388	16.0847	15.9774	1.27406e-26	2.22032e-26	3.28655e-26
6.5	5.3786e+18	2.80408e+25	1.53444	0	0.0811158	9122.32	0	0	2.03877e+38	14.4851	15.546	15.6877	15.7408	16.0867	15.9794	1.27163e-26	2.21674e-26	3.28756e-26
6.75	5.52519e+18	2.79223e+25	1.53444	0	0.0809252	9086.62	0	0	2.10008e+38	14.4863	15.5478	15.6898	15.7431	16.0889	15.9815	1.26901e-26	2.21265e-26	3.28701e-26
7	5.65486e+18	2.78009e+25	1.53444	0	0.0807418	9052.32	0	0	2.1544e+38	14.4877	15.5498	15.6921	15.7455	16.0912	15.9837	1.26625e-26	2.20813e-26	3.28507e-26
7.25	5.76887e+18	2.7677e+25	1.53444	0	0.080565	9019.31	0	0	2.20224e+38	14.4895	15.5521	15.6946	15.748	16.0937	15.986	1.26335e-26	2.20321e-26	3.28189e-26
7.5	5.86842e+18	2.75509e+25	1.53444	0	0.0803944	8987.5	0	0	2.24405e+38	14.4916	15.5546	15.6973	15.7506	16.0962	15.9884	1.26033e-26	2.19794e-26	3.2776e-26
7.75	5.95469e+18	2.7423e+25	1.53444	0	0.0802295	8956.8	0	0	2.28033e+38	14.4939	15.5572	15.7	15.7534	16.0988	15.9908	1.25721e-26	2.19237e-26	3.27231e-26
8	6.02879e+18	2.72934e+25	1.53444	0	0.0800699	8927.13	0	0	2.31152e+38	14.4965	15.56	15.703	15.7562	16.1014	15.9933	1.254e-26	2.18652e-26	3.26613e-26
8.25	6.09176e+18	2.71624e+25	1.53444	0	0.0799153	8898.42	0	0	2.33804e+38	14.4992	15.563	15.706	15.7591	16.1041	15.9959	1.25071e-26	2.18044e-26	3.25915e-26
8.5	6.14458e+18	2.70303e+25	1.53444	0	0.0797654	8870.61	0	0	2.36031e+38	14.5022	15.5661	15.7091	15.7621	16.1069	15.9985	1.24735e-26	2.17414e-26	3.25146e-26
8.75	6.18816e+18	2.68972e+25	1.53444	0	0.0796197	8843.63	0	0	2.37868e+38	14.5053	15.5694	15.7123	15.7652	16.1098	16.0012	1.24393e-26	2.16766e-26	3.24312e-26
9	6.22333e+18	2.67634e+25	1.53444	0	0.079478	8817.42	0	0	2.39352e+38	14.5085	15.5727	15.7156	15.7683	16.1127	16.0039	1.24045e-26	2.16101e-26	3.23422e-26
9.25	6.25088e+18	2.66289e+25	1.53444	0	0.0793401	8791.93	0	0	2.40515e+38	14.5119	15.5762	15.719	15.7715	16.1156	16.0066	1.23694e-26	2.15421e-26	3.2248e-26
9.5	6.27151e+18	2.64939e+25	1.53444	0	0.0792057	8767.11	0	0	2.41385e+38	14.5154	15.5797	15.7224	15.7747	16.1185	16.0094	1.23338e-26	2.14728e-26	3.21493e-26
9.75	6.28587e+18	2.63587e+25	1.53444	0	0.0790744	8742.91	0	0	2.41991e+38	14.5191	15.5834	15.7259	15.778	16.1215	16.0121	1.22979e-26	2.14024e-26	3.20465e-26
10	6.29456e+18	2.62232e+25	1.53444	0	0.0789462	8719.3	0	0	2.42358e+38	14.5228	15.5871	15.7295	15.7813	16.1246	16.0149	1.22617e-26	2.13311e-26	3.194e-26
10.25	6.29813e+18	2.60876e+25	1.53444	0	0.0788208	8696.23	0	0	2.42509e+38	14.5266	15.5908	15.7331	15.7847	16.1276	16.0178	1.22252e-26	2.12589e-26	3.18304e-26
10.5	6.29706e+18	2.59521e+25	1.53444	0	0.0786981	8673.67	0	0	2.42463e+38	14.5305	15.5947	15.7367	15.7881	16.1307	16.0206	1.21886e-26	2.11859e-26	3.17179e-26
10.75	6.29182e+18	2.58167e+25	1.53444	0	0.0785777	8651.58	0	0	2.42242e+38	14.5345	15.5985	15.7404	15.7915	16.1338	16.0235	1.21517e-26	2.11124e-26	3.16028e-26
11	6.28281e+18	2.56814e+25	1.53444	0	0.0784597	8629.93	0	0	2.41861e+38	14.5385	15.6025	15.7441	15.7949	16.1369	16.0264	1.21148e-26	2.10382e-26	3.14856e-26
11.25	6.27041e+18	2.55464e+25	1.53444	0	0.0783438	8608.7	0	0	2.41337e+38	14.5426	15.6064	15.7479	15.7984	16.14	16.0293	1.20777e-26	2.09637e-26	3.13663e-26
11.5	6.25496e+18	2.54117e+25	1.53444	0	0.0782299	8587.85	0	0	2.40685e+38	14.5468	15.6105	15.7517	15.8018	16.1431	16.0322	1.20406e-26	2.08887e-26	3.12454e-26
11.75	6.23677e+18	2.52774e+25	1.53444	0	0.0781179	8567.36	0	0	2.39917e+38	14.551	15.6145	15.7555	15.8053	16.1463	16.0351	1.20034e-26	2.08135e-26	3.1123e-26
12	6.21613e+18	2.51435e+25	1.53444	0	0.0780076	8547.21	0	0	2.39046e+38	14.5553	15.6186	15.7593	15.8089	16.1495	16.038	1.19661e-26	2.0738e-26	3.09993e-26
12.25	6.19329e+18	2.50102e+25	1.53444	0	0.077899	8527.38	0	0	2.38082e+38	14.5596	15.6227	15.7632	15.8124	16.1526	16.0409	1.19289e-26	2.06624e-26	3.08745e-26
12.5	6.16848e+18	2.48773e+25	1.53444	0	0.0777919	8507.85	0	0	2.37035e+38	14.5639	15.6269	15.767	15.8159	16.1558	16.0439	1.18916e-26	2.05866e-26	3.07487e-26
12.75	6.14192e+18	2.4745e+25	1.53444	0	0.0776862	8488.6	0	0	2.35915e+38	14.5683	15.631	15.7709	15.8195	16.159	16.0468	1.18544e-26	2.05107e-26	3.06222e-26
13	6.1138e+18	2.46134e+25	1.53444	0	0.0775819	8469.61	0	0	2.34729e+38	14.5727	15.6352	15.7748	15.823	16.1622	16.0498	1.18172e-26	2.04347e-26	3.04951e-26
13.25	6.08429e+18	2.44823e+25	1.53444	0	0.0774789	8450.87	0	0	2.33486e+38	14.5771	15.6394	15.7787	15.8266	16.1654	16.0527	1.178e-26	2.03588e-26	3.03674e-26
13.5	6.05355e+18	2.43519e+25	1.53444	0	0.077377	8432.37	0	0	2.32191e+38	14.5815	15.6437	15.7826	15.8302	16.1686	16.0557	1.17429e-26	2.02829e-26	3.02393e-26
13.75	6.02173e+18	2.42222e+25	1.53444	0	0.0772763	8414.08	0	0	2.3085e+38	14.586	15.6479	15.7866	15.8338	16.1718	16.0586	1.17058e-26	2.0207e-26	3.01109e-26
14	5.98896e+18	2.40932e+25	1.53444	0	0.0771767	8396	0	0	2.2947e+38	14.5905	15.6521	15.7905	15.8374	16.175	16.0616	1.16689e-26	2.01313e-26	2.99823e-26
14.25	5.95535e+18	2.39649e+25	1.53444	0	0.077078	8378.13	0	0	2.28056e+38	14.595	15.6564	15.7945	15.841	16.1782	16.0645	1.16319e-26	2.00556e-26	2.98536e-26
14.5	5.92102e+18	2.38374e+25	1.53444	0	0.0769803	8360.43	0	0	2.26612e+38	14.5995	15.6607	15.7984	15.8446	16.1815	16.0675	1.15951e-26	1.99801e-26	2.97248e-26
14.75	5.88606e+18	2.37106e+25	1.53444	0	0.0768835	8342.92	0	0	2.25141e+38	14.6041	15.665	15.8024	15.8482	16.1847	16.0704	1.15584e-26	1.99047e-26	2.95961e-26
15	5.85057e+18	2.35845e+25	1.53444	0	0.0767875	8325.57	0	0	2.23649e+38	14.6086	15.6693	15.8064	15.8518	16.1879	16.0734	1.15218e-26	1.98296e-26	2.94674e-26
15.25	5.81461e+18	2.34593e+25	1.53444	0	0.0766924	8308.39	0	0	2.22138e+38	14.6132	15.6736	15.8103	15.8554	16.1911	16.0763	1.14853e-26	1.97546e-26	2.93389e-26
15.5	5.77827e+18	2.33348e+25	1.53444	0	0.076598	8291.35	0	0	2.20612e+38	14.6178	15.6779	15.8143	15.859	16.1943	16.0793	1.14489e-26	1.96798e-26	2.92106e-26
15.75	5.74161e+18	2.32111e+25	1.53444	0	0.0765044	8274.46	0	0	2.19073e+38	14.6224	15.6822	15.8183	15.8626	16.1975	16.0823	1.14126e-26	1.96053e-26	2.90826e-26
16	5.7047e+18	2.30882e+25	1.53444	0	0.0764114	8257.71	0	0	2.17523e+38	14.6269	15.6865	15.8223	15.8662	16.2008	16.0852	1.13764e-26	1.9531e-26	2.89548e-26
16.25	5.66758e+18	2.29661e+25	1.53444	0	0.0763191	8241.1	0	0	2.15966e+38	14.6315	15.6908	15.8262	15.8698	16.204	16.0882	1.13403e-26	1.94569e-26	2.88274e-26
16.5	5.63031e+18	2.28448e+25	1.53444	0	0.0762275	8224.61	0	0	2.14404e+38	14.6361	15.6951	15.8302	15.8734	16.2072	16.0911	1.13044e-26	1.93831e-26	2.87003e-26
16.75	5.59292e+18	2.27243e+25	1.53444	0	0.0761364	8208.24	0	0	2.12837e+38	14.6407	15.6995	15.8342	15.877	16.2104	16.0941	1.12686e-26	1.93096e-26	2.85736e-26
17	5.55547e+18	2.26046e+25	1.53444	0	0.076046	8191.99	0	0	2.11268e+38	14.6453	15.7038	15.8382	15.8806	16.2136	16.097	1.12329e-26	1.92363e-26	2.84474e-26
17.25	5.51799e+18	2.24857e+25	1.53444	0	0.075956	8175.86	0	0	2.09698e+38	14.6499	15.7081	15.8422	15.8842	16.2168	16.0999	1.11974e-26	1.91633e-26	2.83216e-26
17.5	5.48051e+18	2.23676e+25	1.53444	0	0.0758667	8159.83	0	0	2.0813e+38	14.6545	15.7124	15.8461	15.8878	16.22	16.1029	1.1162e-26	1.90906e-26	2.81963e-26
17.75	5.44305e+18	2.22504e+25	1.53444	0	0.0757778	8143.91	0	0	2.06563e+38	14.6591	15.7167	15.8501	15.8914	16.2232	16.1058	1.11267e-26	1.90182e-26	2.80715e-26
18	5.40566e+18	2.21339e+25	1.53444	0	0.0756895	8128.09	0	0	2.04999e+38	14.6638	15.7211	15.8541	15.895	16.2264	16.1088	1.10916e-26	1.89461e-26	2.79472e-26
18.25	5.36835e+18	2.20182e+25	1.53444	0	0.0756016	8112.37	0	0	2.0344e+38	14.6684	15.7254	15.8581	15.8986	16.2296	16.1117	1.10566e-26	1.88744e-26	2.78234e-26
18.5	5.33114e+18	2.19034e+25	1.53444	0	0.0755142	8096.74	0	0	2.01886e+38	14.673	15.7297	15.862	15.9022	16.2328	16.1146	1.10218e-26	1.88029e-26	2.77002e-26
18.75	5.29405e+18	2.17893e+25	1.53444	0	0.0754272	8081.2	0	0	2.00337e+38	14.6776	15.734	15.866	15.9058	16.236	16.1175	1.09871e-26	1.87317e-26	2.75776e-26
19	5.25711e+18	2.1676e+25	1.53444	0	0.0753407	8065.76	0	0	1.98796e+38	14.6822	15.7383	15.87	15.9094	16.2392	16.1204	1.09525e-26	1.86609e-26	2.74555e-26
19.25	5.22032e+18	2.15635e+25	1.53444	0	0.0752546	8050.4	0	0	1.97261e+38	14.6868	15.7426	15.8739	15.9129	16.2423	16.1234	1.09181e-26	1.85903e-26	2.7334e-26
19.5	5.1837e+18	2.14518e+25	1.53444	0	0.0751689	8035.13	0	0	1.95735e+38	14.6914	15.7469	15.8779	15.9165	16.2455	16.1263	1.08838e-26	1.85201e-26	2.72131e-26
19.75	5.14727e+18	2.13409e+25	1.53444	0	0.0750836	8019.93	0	0	1.94217e+38	14.696	15.7512	15.8819	15.9201	16.2487	16.1292	1.08497e-26	1.84503e-26	2.70928e-26
20	5.11104e+18	2.12308e+25	1.53444	0	0.0749986	8004.82	0	0	1.92708e+38	14.7005	15.7555	15.8858	15.9237	16.2519	16.1321	1.08157e-26	1.83807e-26	2.69731e-26
20.25	5.075e+18	2.11215e+25	1.53444	0	0.0749141	7989.79	0	0	1.91208e+38	14.7051	15.7598	15.8898	15.9272	16.255	16.135	1.07818e-26	1.83115e-26	2.6854e-26
20.5	5.03919e+18	2.10129e+25	1.53444	0	0.0748299	7974.84	0	0	1.89718e+38	14.7097	15.7641	15.8937	15.9308	16.2582	16.1379	1.07481e-26	1.82426e-26	2.67356e-26
20.75	5.00359e+18	2.09051e+25	1.53444	0	0.0747461	7959.96	0	0	1.88238e+38	14.7143	15.7684	15.8976	15.9343	16.2614	16.1408	1.07146e-26	1.8174e-26	2.66178e-26
21	4.96822e+18	2.0798e+25	1.53444	0	0.0746627	7945.15	0	0	1.86768e+38	14.7189	15.7727	15.9016	15.9379	16.2645	16.1437	1.06811e-26	1.81057e-26	2.65006e-26
21.25	4.93309e+18	2.06917e+25	1.53444	0	0.0745796	7930.42	0	0	1.85308e+38	14.7234	15.777	15.9055	15.9414	16.2677	16.1466	1.06479e-26	1.80378e-26	2.6384e-26
21.5	4.8982e+18	2.05862e+25	1.53444	0	0.0744968	7915.75	0	0	1.8386e+38	14.728	15.7813	15.9094	15.945	16.2708	16.1494	1.06147e-26	1.79702e-26	2.62681e-26
21.75	4.86355e+18	2.04814e+25	1.53444	0	0.0744144	7901.16	0	0	1.82422e+38	14.7326	15.7855	15.9134	15.9485	16.274	16.1523	1.05818e-26	1.79029e-26	2.61528e-26
22	4.82915e+18	2.03773e+25	1.53444	0	0.0743323	7886.64	0	0	1.80995e+38	14.7371	15.7898	15.9173	15.9521	16.2771	16.1552	1.05489e-26	1.7836e-26	2.60381e-26
22.25	4.79501e+18	2.0274e+25	1.53444	0	0.0742505	7872.18	0	0	1.7958e+38	14.7417	15.794	15.9212	15.9556	16.2802	16.1581	1.05162e-26	1.77693e-26	2.59241e-26
22.5	4.76111e+18	2.01714e+25	1.53444	0	0.074169	7857.79	0	0	1.78175e+38	14.7462	15.7983	15.9251	15.9591	16.2834	16.1609	1.04837e-26	1.77031e-26	2.58107e-26
22.75	4.72748e+18	2.00696e+25	1.53444	0	0.0740879	7843.46	0	0	1.76782e+38	14.7507	15.8026	15.929	15.9627	16.2865	16.1638	1.04512e-26	1.76371e-26	2.5698e-26
23	4.6941e+18	1.99684e+25	1.53444	0	0.074007	7829.2	0	0	1.75401e+38	14.7553	15.8068	15.9329	15.9662	16.2896	16.1666	1.0419e-26	1.75714e-26	2.55859e-26
23.25	4.66098e+18	1.9868e+25	1.53444	0	0.0739264	7815	0	0	1.74031e+38	14.7598	15.811	15.9368	15.9697	16.2927	16.1695	1.03868e-26	1.75061e-26	2.54744e-26
23.5	4.62813e+18	1.97683e+25	1.53444	0	0.0738462	7800.86	0	0	1.72673e+38	14.7643	15.8153	15.9407	15.9732	16.2958	16.1723	1.03548e-26	1.74411e-26	2.53635e-26
23.75	4.59553e+18	1.96692e+25	1.53444	0	0.0737662	7786.79	0	0	1.71326e+38	14.7688	15.8195	15.9446	15.9767	16.2989	16.1752	1.0323e-26	1.73764e-26	2.52533e-26
24	4.5632e+18	1.95709e+25	1.53444	0	0.0736865	7772.77	0	0	1.6999e+38	14.7733	15.8237	15.9485	15.9802	16.3021	16.178	1.02913e-26	1.73121e-26	2.51438e-26
24.25	4.53113e+18	1.94733e+25	1.53444	0	0.0736071	7758.82	0	0	1.68666e+38	14.7778	15.8279	15.9523	15.9837	16.3052	16.1808	1.02597e-26	1.72481e-26	2.50348e-26
24.5	4.49932e+18	1.93763e+25	1.53444	0	0.073528	7744.92	0	0	1.67354e+38	14.7823	15.8322	15.9562	15.9872	16.3083	16.1837	1.02283e-26	1.71843e-26	2.49265e-26
24.75	4.46777e+18	1.92801e+25	1.53444	0	0.0734491	7731.09	0	0	1.66053e+38	14.7868	15.8364	15.9601	15.9907	16.3113	16.1865	1.0197e-26	1.71209e-26	2.48188e-26
25	4.43649e+18	1.91845e+25	1.53444	0	0.0733706	7717.31	0	0	1.64764e+38	14.7913	15.8406	15.9639	15.9942	16.3144	16.1893	1.01658e-26	1.70579e-26	2.47117e-26
25.25	4.40546e+18	1.90895e+25	1.53444	0	0.0732923	7703.58	0	0	1.63486e+38	14.7958	15.8448	15.9678	15.9977	16.3175	16.1921	1.01348e-26	1.69951e-26	2.46053e-26
25.5	4.3747e+18	1.89953e+25	1.53444	0	0.0732142	7689.92	0	0	1.62219e+38	14.8003	15.849	15.9716	16.0011	16.3206	16.195	1.01039e-26	1.69326e-26	2.44994e-26
25.75	4.34419e+18	1.89017e+25	1.53444	0	0.0731364	7676.31	0	0	1.60964e+38	14.8047	15.8531	15.9755	16.0046	16.3237	16.1978	1.00732e-26	1.68705e-26	2.43942e-26
26	4.31394e+18	1.88087e+25	1.53444	0	0.0730589	7662.76	0	0	1.5972e+38	14.8092	15.8573	15.9793	16.0081	16.3267	16.2006	1.00425e-26	1.68086e-26	2.42896e-26
26.25	4.28395e+18	1.87164e+25	1.53444	0	0.0729817	7649.26	0	0	1.58487e+38	14.8136	15.8615	15.9832	16.0115	16.3298	16.2034	1.00121e-26	1.67471e-26	2.41856e-26
26.5	4.25421e+18	1.86247e+25	1.53444	0	0.0729047	7635.81	0	0	1.57265e+38	14.8181	15.8657	15.987	16.015	16.3329	16.2062	9.9817e-27	1.66859e-26	2.40822e-26
26.75	4.22472e+18	1.85337e+25	1.53444	0	0.072828	7622.42	0	0	1.56054e+38	14.8225	15.8698	15.9908	16.0184	16.3359	16.209	9.95148e-27	1.6625e-26	2.39794e-26
27	4.19549e+18	1.84433e+25	1.53444	0	0.0727515	7609.09	0	0	1.54855e+38	14.827	15.874	15.9947	16.0219	16.339	16.2118	9.9214e-27	1.65644e-26	2.38772e-26
27.25	4.1665e+18	1.83535e+25	1.53444	0	0.0726753	7595.8	0	0	1.53666e+38	14.8314	15.8781	15.9985	16.0253	16.342	16.2145	9.89144e-27	1.65041e-26	2.37756e-26
27.5	4.13777e+18	1.82644e+25	1.53444	0	0.0725993	7582.57	0	0	1.52488e+38	14.8358	15.8823	16.0023	16.0288	16.3451	16.2173	9.86162e-27	1.6444e-26	2.36746e-26
27.75	4.10928e+18	1.81758e+25	1.53444	0	0.0725235	7569.39	0	0	1.51321e+38	14.8402	15.8864	16.0061	16.0322	16.3481	16.2201	9.83192e-27	1.63843e-26	2.35742e-26
28	4.08103e+18	1.80879e+25	1.53444	0	0.0724481	7556.27	0	0	1.50164e+38	14.8446	15.8906	16.0099	16.0356	16.3512	16.2229	9.80236e-27	1.63249e-26	2.34744e-26
28.25	4.05303e+18	1.80006e+25	1.53444	0	0.0723728	7543.19	0	0	1.49018e+38	14.849	15.8947	16.0137	16.0391	16.3542	16.2256	9.77292e-27	1.62658e-26	2.33751e-26
28.5	4.02527e+18	1.79138e+25	1.53444	0	0.0722978	7530.17	0	0	1.47882e+38	14.8534	15.8988	16.0175	16.0425	16.3572	16.2284	9.74361e-27	1.6207e-26	2.32765e-26
28.75	3.99775e+18	1.78277e+25	1.53444	0	0.072223	7517.19	0	0	1.46757e+38	14.8578	15.9029	16.0213	16.0459	16.3602	16.2312	9.71443e-27	1.61484e-26	2.31784e-26
29	3.97046e+18	1.77421e+25	1.53444	0	0.0721485	7504.27	0	0	1.45642e+38	14.8622	15.907	16.025	16.0493	16.3633	16.2339	9.68538e-27	1.60902e-26	2.30808e-26
29.25	3.94341e+18	1.76572e+25	1.53444	0	0.0720742	7491.39	0	0	1.44538e+38	14.8666	15.9111	16.0288	16.0527	16.3663	16.2367	9.65645e-27	1.60322e-26	2.29839e-26
29.5	3.91659e+18	1.75728e+25	1.53444	0	0.0720001	7478.57	0	0	1.43443e+38	14.8709	15.9152	16.0326	16.0561	16.3693	16.2394	9.62764e-27	1.59746e-26	2.28875e-26
29.75	3.89e+18	1.74889e+25	1.53444	0	0.0719263	7465.79	0	0	1.42358e+38	14.8753	15.9193	16.0364	16.0595	16.3723	16.2422	9.59896e-27	1.59172e-26	2.27916e-26
30	3.86365e+18	1.74057e+25	1.53444	0	0.0718527	7453.06	0	0	1.41284e+38	14.8796	15.9234	16.0401	16.0629	16.3753	16.2449	9.57041e-27	1.58601e-26	2.26963e-26
30.25	3.83751e+18	1.7323e+25	1.53444	0	0.0717794	7440.38	0	0	1.40219e+38	14.884	15.9275	16.0439	16.0663	16.3783	16.2476	9.54197e-27	1.58033e-26	2.26016e-26
30.5	3.81161e+18	1.72409e+25	1.53444	0	0.0717062	7427.75	0	0	1.39164e+38	14.8883	15.9316	16.0476	16.0697	16.3813	16.2504	9.51366e-27	1.57467e-26	2.25074e-26
30.75	3.78592e+18	1.71593e+25	1.53444	0	0.0716333	7415.17	0	0	1.38118e+38	14.8927	15.9356	16.0514	16.0731	16.3843	16.2531	9.48547e-27	1.56905e-26	2.24138e-26
